Voltage - Plot 0	Current - Plot 0	
0.272624	0.000315031	
0.262588	0.000300987	
0.252059	0.000285605	
0.240708	0.000271895	
0.228698	0.000257851	
0.218992	0.000243138	
0.209943	0.000230098	
0.200401	0.000218394	
0.189708	0.000204685	
0.179672	0.000192647	
0.169472	0.000179271	
0.159272	0.00016389	
0.149237	0.000151518	
0.137556	0.000140149	
0.126534	0.000126773	
0.115511	0.000113398	
0.105969	0.00010437	
0.0964274	9.03258E-5	
0.0863919	7.66162E-5	
0.0755338	6.4244E-5	
0.0656629	5.08687E-5	
0.0562855	3.8831E-5	
0.0455919	2.81308E-5	
0.0334177	1.47555E-5	
0.0225597	4.38963E-6	
0.0131823	-7.31374E-6	
0.00380486	-1.86827E-5	
-0.00639513	-2.97173E-5	
-0.0162661	-3.908E-5	
-0.0261371	-4.91115E-5	
-0.0369951	-5.94774E-5	
-0.046537	-6.75025E-5	
-0.0570661	-7.92059E-5	
-0.0682532	-8.8903E-5	
-0.0797693	-9.82657E-5	
-0.0898048	-0.000108632	
-0.0995112	-0.000118663	
-0.108889	-0.000126688	
-0.11876	-0.000138057	
-0.128466	-0.000148757	
-0.138666	-0.000159458	
-0.148701	-0.000170827	
-0.158901	-0.000180858	
-0.170582	-0.000191224	
-0.181111	-0.000202259	
-0.190982	-0.000213293	
-0.200853	-0.000223993	
-0.210724	-0.000235028	
-0.22043	-0.000247066	
-0.230466	-0.000256428	
-0.240666	-0.000269135	
-0.25136	-0.000283513	
-0.261395	-0.000293879	
-0.272582	-0.000307589	
-0.283276	-0.00031762	
-0.293147	-0.000328989	
-0.302853	-0.000340693	
-0.312395	-0.00035039	
-0.322101	-0.000361424	
-0.332466	-0.000377475	
-0.342172	-0.000388844	
-0.351879	-0.000399878	
-0.362572	-0.000414257	
-0.374418	-0.000425626	
-0.384289	-0.000437664	
-0.39383	-0.000451039	
-0.403701	-0.00046408	
-0.413243	-0.000479127	
-0.424101	-0.000496515	
-0.433808	-0.000512565	
-0.444172	-0.000532294	
-0.453879	-0.000556035	
-0.46375	-0.000580445	
-0.47576	-0.000607195	
-0.486453	-0.000637959	
-0.496324	-0.000668053	
-0.494679	-0.000608533	
-0.483492	-0.000553025	
-0.472469	-0.000517581	
-0.461611	-0.000492837	
-0.45174	-0.000467758	
-0.441047	-0.000447026	
-0.429859	-0.000427967	
-0.421963	-0.000410244	
-0.412585	-0.000390516	
-0.400247	-0.000373797	
-0.389718	-0.000357746	
-0.379024	-0.000341027	
-0.368001	-0.000325646	
-0.357637	-0.000311602	
-0.347272	-0.000297892	
-0.337237	-0.000284517	
-0.326708	-0.000270138	
-0.318647	-0.000254757	
-0.307953	-0.00024205	
-0.297424	-0.000228675	
-0.286566	-0.000214631	
-0.275379	-0.000200587	
-0.26485	-0.000188214	
-0.254156	-0.000173502	
-0.244614	-0.000163136	
-0.234085	-0.000150429	
-0.223392	-0.000137054	
-0.21566	-0.000126019	
-0.20546	-0.00011231	
-0.194108	-9.86001E-5	
-0.183414	-8.92374E-5	
-0.172227	-7.71996E-5	
-0.162356	-6.54962E-5	
-0.151827	-5.44616E-5	
-0.141134	-4.27582E-5	
-0.130769	-3.00517E-5	
-0.120076	-2.0689E-5	
-0.112343	-1.06576E-5	
-0.10165	1.38019E-6	
-0.0909564	1.37523E-5	
-0.0807564	2.41182E-5	
-0.0700628	3.71591E-5	
-0.0590403	4.75249E-5	
-0.0486757	6.05658E-5	
-0.0381467	7.36067E-5	
-0.0284403	8.53101E-5	
-0.0177467	0.000101026	
-0.00968545	0.000116408	
0.000843571	0.000130786	
0.0112081	0.000145833	
0.0223952	0.000162552	
0.0332532	0.000175259	
0.0431242	0.000186293	
0.0541468	0.000197997	
0.0648403	0.000202009	
0.0748758	0.000208028	
0.0842532	0.00021505	
0.0921499	0.000223744	
0.103666	0.000235113	
0.11436	0.000249826	
0.125382	0.000261529	
0.135418	0.000274905	
0.145947	0.000290955	
0.156476	0.000302993	
0.166511	0.000315365	
0.17704	0.000330412	
0.187076	0.000344122	
0.195466	0.000357831	
0.205666	0.000372879	
0.217018	0.000386923	
0.227711	0.000398626	
0.237911	0.000411667	
0.24844	0.000422367	
0.258805	0.000433402	
0.269498	0.000446108	
0.279698	0.000455805	
0.288911	0.000467509	
0.297137	0.00047754	
0.307666	0.000487572	
0.319017	0.000498272	
0.329053	0.000511313	
0.339253	0.000518335	
0.349453	0.000529704	
0.36064	0.000543414	
0.371169	0.000551439	
0.380711	0.000562139	
0.390746	0.000576183	
0.399301	0.000588221	
0.409501	0.000600593	
0.420524	0.000615306	
0.431382	0.000627009	
0.441911	0.000638378	
0.452275	0.000651085	
0.461817	0.000660447	
0.473004	0.000675829	
0.483204	0.000688535	
0.492911	0.000700573	
0.49834	0.00069656	
0.488304	0.000658441	
0.478433	0.000632359	
0.468069	0.000607949	
0.457375	0.000586214	
0.447998	0.000567155	
0.437469	0.000548429	
0.427433	0.000531041	
0.417069	0.000515994	
0.405388	0.000498941	
0.393708	0.000484897	
0.383837	0.000469849	
0.374295	0.000454802	
0.363601	0.000438752	
0.353895	0.000426045	
0.34353	0.000408658	
0.334153	0.000397623	
0.322637	0.000380569	
0.312766	0.000365522	
0.302072	0.000352816	
0.289734	0.000338103	
0.279205	0.000326065	
0.269663	0.000312356	
0.260614	0.000300652	
0.249592	0.00028293	
0.239392	0.000269555	
0.230014	0.000256848	
0.220143	0.000242804	
0.209943	0.00022876	
0.19744	0.000217391	
0.186418	0.000202344	
0.176382	0.000189972	
0.166676	0.000175928	
0.157134	0.000163221	
0.146276	0.000150849	
0.136569	0.000138142	
0.12604	0.00012343	
0.117156	0.000113398	
0.106463	0.000100023	
0.0947822	8.76508E-5	
0.0827725	7.42755E-5	
0.0732306	6.35753E-5	
0.0640177	5.18719E-5	
0.0543113	4.05029E-5	
0.0437822	2.7462E-5	
0.0342403	1.47555E-5	
0.0232177	2.71772E-6	
0.0131823	-9.9888E-6	
0.0031468	-2.03546E-5	
-0.0091919	-3.13893E-5	
-0.0193919	-4.37614E-5	
-0.0289338	-4.94459E-5	
-0.0388048	-6.04805E-5	
-0.0486757	-6.98432E-5	
-0.0590403	-7.92059E-5	
-0.0689112	-8.92374E-5	
-0.0782886	-9.79313E-5	
-0.0894757	-0.000107294	
-0.0991822	-0.000115988	
-0.110698	-0.000126688	
-0.121721	-0.000137054	
-0.132085	-0.000146417	
-0.140969	-0.000157117	
-0.150676	-0.000165476	
-0.16104	-0.000176845	
-0.171405	-0.00018788	
-0.180453	-0.000197577	
-0.190982	-0.000207274	
-0.201347	-0.000220315	
-0.213685	-0.000234694	
-0.22405	-0.000244056	
-0.233427	-0.000254088	
-0.242969	-0.000264788	
-0.252347	-0.000275154	
-0.262547	-0.000287526	
-0.272418	-0.000297892	
-0.282289	-0.000308926	
-0.293147	-0.000322636	
-0.303511	-0.000335343	
-0.315685	-0.000343702	
-0.325885	-0.000357077	
-0.335592	-0.000368446	
-0.345792	-0.00038015	
-0.355169	-0.000392856	
-0.36504	-0.000406566	
-0.374582	-0.000417935	
-0.385276	-0.000433317	
-0.395147	-0.000445354	
-0.405511	-0.000461739	
-0.416369	-0.000477789	
-0.427227	-0.000491834	
-0.437427	-0.000507215	
-0.446147	-0.000527947	
-0.45684	-0.000551688	
-0.466053	-0.000573088	
-0.47576	-0.000600173	
-0.48596	-0.000629599	
-0.495501	-0.000658022	
-0.491882	-0.000579107	
-0.483492	-0.000532628	
-0.472963	-0.000502868	
-0.461611	-0.000475783	
-0.450424	-0.000454048	
-0.440224	-0.000432982	
-0.429037	-0.000412919	
-0.419495	-0.000396535	
-0.408966	-0.000381487	
-0.397121	-0.000362762	
-0.386921	-0.000350055	
-0.378366	-0.000334005	
-0.367672	-0.000316617	
-0.35665	-0.00030157	
-0.346121	-0.000287526	
-0.335427	-0.00027181	
-0.324734	-0.000260441	
-0.314698	-0.0002474	
-0.303676	-0.000232353	
-0.294298	-0.00022065	
-0.283934	-0.00020694	
-0.275379	-0.000194568	
-0.265014	-0.000181527	
-0.253334	-0.00016648	
-0.243627	-0.000157451	
-0.232605	-0.000143073	
-0.221582	-0.000132707	
-0.211382	-0.000120001	
-0.201511	-0.000107294	
-0.19016	-9.75969E-5	
-0.180124	-8.42216E-5	
-0.171734	-7.08463E-5	
-0.160547	-6.08149E-5	
-0.150676	-5.01147E-5	
-0.139324	-3.87457E-5	
-0.129289	-2.87142E-5	
-0.118102	-1.76796E-5	
-0.108066	-5.97621E-6	
-0.097208	5.0584E-6	
-0.0879951	1.44211E-5	
-0.0777951	2.41182E-5	
-0.0692402	3.68247E-5	
-0.0580532	4.85281E-5	
-0.0476887	6.1569E-5	
-0.0378177	7.49443E-5	
-0.0263016	8.83195E-5	
-0.0157725	0.000102364	
-0.00540804	0.000116742	
0.00561454	0.000132792	
0.015979	0.000145833	
0.025521	0.000162552	
0.0339113	0.000177934	
0.0442758	0.000186628	
0.0552984	0.000195991	
0.0663209	0.000202009	
0.0765209	0.00020736	
0.0868854	0.000215719	
0.098237	0.000228091	
0.107779	0.000240463	
0.118637	0.000251164	
0.127521	0.000262533	
0.136076	0.000276911	
0.147427	0.000289952	
0.157463	0.000306671	
0.16865	0.000319712	
0.179179	0.000330747	
0.18905	0.000344791	
0.200072	0.000359169	
0.209614	0.000371541	
0.220637	0.000383579	
0.230014	0.000396285	
0.239063	0.000408992	
0.249098	0.000419023	
0.259463	0.000430392	
0.271308	0.00044544	
0.281837	0.000454802	
0.292201	0.000464834	
0.302895	0.000477206	
0.312766	0.000484897	
0.32313	0.000496934	
0.332837	0.000509641	
0.340898	0.000517666	
0.351263	0.000530038	
0.361792	0.000542076	
0.372814	0.000551773	
0.383179	0.000563142	
0.393379	0.000576852	
0.404237	0.000588555	
0.413943	0.000600258	
0.424143	0.000612296	
0.43385	0.000625003	
0.442733	0.000636706	
0.453427	0.000649747	
0.463462	0.000662454	
0.474814	0.000676163	
0.485343	0.00068887	
0.495543	0.000702579	
0.497846	0.00068051	
0.487317	0.000646738	
0.476459	0.000621993	
0.465601	0.00059959	
0.452933	0.000579192	
0.443062	0.000562139	
0.433685	0.000543748	
0.42365	0.00052636	
0.413614	0.000511313	
0.402921	0.000493591	
0.392885	0.000479881	
0.382685	0.000464165	
0.371334	0.000448449	
0.360311	0.000433067	
0.348959	0.000419358	
0.339088	0.000405648	
0.329053	0.000389598	
0.319182	0.00037756	
0.309476	0.000362847	
0.298947	0.000347466	
0.289405	0.000335428	
0.278382	0.000321384	
0.269005	0.000306671	
0.256337	0.000291289	
0.24515	0.000278917	
0.235937	0.00026688	
0.225572	0.000252836	
0.216195	0.000240798	
0.205995	0.000226419	
0.195301	0.000210035	
0.185595	0.000199	
0.175395	0.000184622	
0.164866	0.000169909	
0.153021	0.000158874	
0.142327	0.000147505	
0.132456	0.000135133	
0.122421	0.000123095	
0.11255	0.000110723	
0.102514	9.60103E-5	
0.0926435	8.39726E-5	
0.082279	7.05973E-5	
0.0725725	5.82252E-5	
0.0620435	4.78593E-5	
0.0503629	3.58216E-5	
0.0393403	2.37838E-5	
0.0293048	1.27492E-5	
0.0194339	1.04581E-6	
0.0100565	-1.09919E-5	
-0.000472557	-2.20266E-5	
-0.0103435	-3.37299E-5	
-0.0205435	-4.37614E-5	
-0.0300854	-5.21209E-5	
-0.0409435	-6.44931E-5	
-0.0527886	-7.25183E-5	
-0.0634822	-8.05434E-5	
-0.0730241	-9.02405E-5	
-0.0830596	-9.99376E-5	
-0.0926015	-0.000107628	
-0.103624	-0.000120001	
-0.113166	-0.000130366	
-0.123531	-0.000139395	
-0.133895	-0.000150429	
-0.143108	-0.000161464	
-0.155776	-0.000171161	
-0.165811	-0.000181861	
-0.175518	-0.00019089	
-0.185718	-0.000202927	
-0.195095	-0.000213628	
-0.20513	-0.000224328	
-0.21533	-0.000235362	
-0.225366	-0.000247066	
-0.236224	-0.000259772	
-0.245766	-0.000271476	
-0.257776	-0.000281841	
-0.267976	-0.000294882	
-0.277847	-0.000304914	
-0.287718	-0.000314945	
-0.298247	-0.000326314	
-0.308118	-0.000337683	
-0.318153	-0.000348718	
-0.328024	-0.000362428	
-0.338059	-0.000373462	
-0.348259	-0.0003855	
-0.360105	-0.000396869	
-0.370634	-0.000408238	
-0.38034	-0.000418269	
-0.389882	-0.00043131	
-0.399918	-0.000444351	
-0.409459	-0.000458061	
-0.419495	-0.000475114	
-0.429201	-0.000490162	
-0.439401	-0.000505209	
-0.44993	-0.000524937	
-0.462105	-0.000545	
-0.471811	-0.000565063	
-0.481682	-0.000589473	
-0.491389	-0.000614552	
-0.49945	-0.000603183	
-0.488427	-0.000527947	
-0.477734	-0.000489493	
-0.466876	-0.000457727	
-0.455853	-0.000435323	
-0.445653	-0.000413588	
-0.436934	-0.000395866	
-0.426569	-0.000378812	
-0.415382	-0.000363765	
-0.404853	-0.000350055	
-0.393666	-0.000336011	
-0.383137	-0.000324642	
-0.372772	-0.000311267	
-0.361914	-0.000297892	
-0.351385	-0.00028552	
-0.341185	-0.000273816	
-0.332959	-0.00026111	
-0.322266	-0.000249406	
-0.312066	-0.000233356	
-0.301043	-0.000220984	
-0.290514	-0.000210952	
-0.279656	-0.000195905	
-0.269292	-0.000184871	
-0.258763	-0.00017183	
-0.248069	-0.000157117	
-0.238527	-0.000146082	
-0.230466	-0.000134379	
-0.219279	-0.000121004	
-0.207763	-0.000109635	
-0.197234	-9.86001E-5	
-0.186705	-8.52248E-5	
-0.176011	-7.55277E-5	
-0.165318	-6.41587E-5	
-0.155611	-5.0449E-5	
-0.145411	-4.20895E-5	
-0.13554	-3.10549E-5	
-0.126821	-1.90171E-5	
-0.116127	-1.09919E-5	
-0.105434	1.38019E-6	
-0.0944112	1.20804E-5	
-0.0840467	2.24463E-5	
-0.0738467	3.4484E-5	
-0.0629886	4.48499E-5	
-0.0521306	5.62189E-5	
-0.0417661	7.16004E-5	
-0.0323887	8.53101E-5	
-0.0236693	9.8351E-5	
-0.0128113	0.000113733	
-0.00145965	0.000127777	
0.00906937	0.000142155	
0.0194339	0.000156868	
0.0297984	0.000170243	
0.0395048	0.000184956	
0.0500339	0.000192647	
0.0605629	0.000198331	
0.0701048	0.000204685	
0.0786596	0.000213044	
0.0895177	0.000222072	
0.100376	0.000232438	
0.111234	0.000245479	
0.121434	0.000257851	
0.132127	0.000270558	
0.142985	0.000281927	
0.15335	0.000296974	
0.163385	0.000310684	
0.172763	0.000325396	
0.181811	0.0003371	
0.192834	0.000351478	
0.203034	0.000364854	
0.213892	0.000377226	
0.224585	0.000389598	
0.234621	0.000402973	
0.244656	0.000413673	
0.255021	0.000425042	
0.265385	0.000436077	
0.274434	0.000446108	
0.283811	0.000457812	
0.294176	0.000469515	
0.304869	0.000479212	
0.315563	0.000491584	
0.325927	0.000501281	
0.33695	0.000510644	
0.347314	0.000522682	
0.357679	0.000534385	
0.36755	0.000543414	
0.376927	0.000556454	
0.386469	0.000568158	
0.396504	0.00058053	
0.407527	0.000593236	
0.417892	0.000606612	
0.428585	0.000617646	
0.438456	0.00062935	
0.44915	0.000640719	
0.458856	0.000651085	
0.469056	0.000663791	
0.47794	0.000675494	
0.487153	0.000688535	
0.49834	0.000703582	
0.490937	0.000659444	
0.480572	0.000631356	
0.470701	0.000605943	
0.460501	0.000584877	
0.449808	0.000565817	
0.439443	0.000549432	
0.428914	0.000532379	
0.417398	0.000516329	
0.406046	0.000500278	
0.396175	0.000487237	
0.386304	0.000471521	
0.376269	0.000456474	
0.365904	0.000443099	
0.355375	0.000427049	
0.345669	0.000413005	
0.334811	0.000397623	
0.325105	0.000384248	
0.312272	0.000373547	
0.302237	0.000357163	
0.291379	0.000344122	
0.281837	0.000332753	
0.271966	0.00031804	
0.26193	0.000303327	
0.251401	0.000290955	
0.24153	0.00027758	
0.231824	0.00026387	
0.22113	0.000250829	
0.208792	0.000237788	
0.198427	0.000225082	
0.188885	0.00021271	
0.178685	0.000199	
0.167992	0.000186628	
0.15845	0.000173921	
0.14825	0.000160546	
0.137885	0.000147505	
0.127521	0.000135802	
0.117979	0.000121758	
0.105476	0.000110389	
0.0946177	9.73479E-5	
0.0852403	8.79852E-5	
0.0753693	7.46099E-5	
0.0661564	6.4244E-5	
0.0551338	5.12031E-5	
0.0452629	3.84966E-5	
0.0355564	2.77964E-5	
0.0251919	1.54242E-5	
0.0144984	3.38649E-6	
0.00199518	-8.65127E-6	
-0.00820481	-2.00203E-5	
-0.0175822	-2.90486E-5	
-0.0276177	-3.94144E-5	
-0.0376532	-4.74396E-5	
-0.0483467	-5.71367E-5	
-0.0575596	-6.68338E-5	
-0.0682532	-7.68652E-5	
-0.0781241	-8.68967E-5	
-0.0888177	-9.72625E-5	
-0.101321	-0.00010395	
-0.110698	-0.000114985	
-0.121392	-0.000123344	
-0.130111	-0.000135048	
-0.140147	-0.000143742	
-0.149689	-0.000153439	
-0.159889	-0.000165142	
-0.169595	-0.000175842	
-0.179631	-0.000184536	
-0.19016	-0.000197577	
-0.202663	-0.000209281	
-0.212534	-0.000219312	
-0.22224	-0.000229009	
-0.23244	-0.000243053	
-0.242147	-0.00025576	
-0.251524	-0.000266794	
-0.261395	-0.000278832	
-0.270937	-0.000290201	
-0.282124	-0.000301904	
-0.292324	-0.000314611	
-0.304169	-0.00032598	
-0.314369	-0.00033969	
-0.324076	-0.00035039	
-0.333124	-0.000362762	
-0.343324	-0.000375134	
-0.353359	-0.000389513	
-0.363559	-0.000402553	
-0.373759	-0.000417601	
-0.382808	-0.000431645	
-0.393501	-0.000444351	
-0.40584	-0.000459064	
-0.41604	-0.000476118	
-0.425911	-0.000491834	
-0.43463	-0.000507884	
-0.444995	-0.00052895	
-0.455524	-0.000548679	
-0.465395	-0.000570413	
-0.474937	-0.000594489	
-0.48563	-0.000619233	
-0.49583	-0.000648993	
-0.494021	-0.000578439	
-0.483492	-0.000532628	
-0.471976	-0.000503203	
-0.461776	-0.000477455	
-0.451082	-0.000456389	
-0.439566	-0.00043666	
-0.42953	-0.000419607	
-0.418672	-0.000401885	
-0.407814	-0.000385834	
-0.397614	-0.000368446	
-0.389553	-0.000353065	
-0.378366	-0.000339355	
-0.367837	-0.00032297	
-0.356814	-0.000307255	
-0.345792	-0.000293545	
-0.335592	-0.000277829	
-0.324898	-0.000264119	
-0.314863	-0.000248403	
-0.304005	-0.000234694	
-0.294627	-0.00022299	
-0.285743	-0.000209281	
-0.274392	-0.000194233	
-0.264192	-0.000182864	
-0.253005	-0.000171161	
-0.242969	-0.00015812	
-0.23244	-0.00014742	
-0.220924	-0.000135382	
-0.211053	-0.00012301	
-0.200689	-0.000112644	
-0.191476	-9.96032E-5	
-0.182098	-8.78998E-5	
-0.17124	-7.82028E-5	
-0.160547	-6.64994E-5	
-0.150182	-5.64679E-5	
-0.13916	-4.57677E-5	
-0.128795	-3.40643E-5	
-0.118266	-2.40328E-5	
-0.107243	-1.46701E-5	
-0.097537	-2.63239E-6	
-0.0881596	6.06154E-6	
-0.0791112	1.87681E-5	
-0.0679241	2.94683E-5	
-0.0573951	4.05029E-5	
-0.0467016	5.38782E-5	
-0.036337	6.4244E-5	
-0.025479	7.79537E-5	
-0.01495	9.23321E-5	
-0.00458546	0.000104704	
0.00577905	0.000120755	
0.0144984	0.000135133	
0.0240403	0.000149846	
0.0344048	0.000163221	
0.0455919	0.000174256	
0.0561209	0.000180943	
0.0664855	0.000186628	
0.077179	0.000194319	
0.087708	0.000204016	
0.098237	0.000216053	
0.108273	0.000226419	
0.116663	0.000239795	
0.125711	0.00025317	
0.136734	0.000264539	
0.14825	0.000279252	
0.158614	0.000291958	
0.168814	0.000303662	
0.180331	0.000317706	
0.19053	0.000332753	
0.200401	0.000345794	
0.210437	0.000359169	
0.219321	0.00037221	
0.228534	0.000382576	
0.239721	0.000394948	
0.250085	0.000405648	
0.261272	0.000417017	
0.271637	0.000429389	
0.28233	0.000438418	
0.292201	0.000449452	
0.302566	0.000462493	
0.313588	0.000471521	
0.322308	0.000482222	
0.331685	0.000494259	
0.342708	0.00050496	
0.35373	0.000516997	
0.363766	0.000528032	
0.374295	0.000538398	
0.384495	0.000549432	
0.394859	0.00056147	
0.405388	0.00057518	
0.415424	0.000587552	
0.424143	0.000600593	
0.433685	0.000611962	
0.444214	0.00062634	
0.455072	0.00064005	
0.465437	0.000651753	
0.475472	0.00066446	
0.486495	0.000678504	
0.496201	0.000692214	
0.496201	0.000664794	
0.486001	0.000635034	
0.473827	0.000613299	
0.462804	0.00059123	
0.452933	0.000572839	
0.442569	0.000554782	
0.433027	0.000536057	
0.422827	0.000522013	
0.412463	0.000507969	
0.402756	0.000493256	
0.392227	0.000477875	
0.381369	0.000464165	
0.369524	0.000449452	
0.358501	0.000433402	
0.349124	0.000422033	
0.338595	0.000406986	
0.327901	0.000393945	
0.318359	0.000379901	
0.308159	0.000365857	
0.297137	0.000352481	
0.286937	0.000338772	
0.27575	0.000325062	
0.264398	0.000312356	
0.25354	0.000296974	
0.243834	0.000285939	
0.234621	0.000271227	
0.224092	0.00025852	
0.213727	0.00024481	
0.203856	0.000232773	
0.193492	0.000219063	
0.182634	0.00020435	
0.172105	0.000191644	
0.159931	0.000179606	
0.149731	0.000165896	
0.140189	0.000155196	
0.130153	0.000142824	
0.119295	0.000130452	
0.109918	0.000117411	
0.0998822	0.000103701	
0.0888596	9.03258E-5	
0.0789887	7.72849E-5	
0.0689532	6.55816E-5	
0.0569435	5.48813E-5	
0.045921	4.11717E-5	
0.0367081	3.08058E-5	
0.0265081	1.80993E-5	
0.0174597	6.39593E-6	
0.00758873	-5.97621E-6	
-0.0029403	-1.60077E-5	
-0.0128113	-2.77111E-5	
-0.0225177	-3.87457E-5	
-0.0338693	-4.71052E-5	
-0.0467016	-5.9143E-5	
-0.0559145	-6.78369E-5	
-0.0664435	-7.55277E-5	
-0.076479	-8.72311E-5	
-0.0866789	-9.86001E-5	
-0.0960564	-0.00010696	
-0.106092	-0.000117994	
-0.116456	-0.000128694	
-0.126656	-0.000138057	
-0.137185	-0.000149426	
-0.149195	-0.000160795	
-0.159066	-0.000171161	
-0.168114	-0.000182196	
-0.17815	-0.000192227	
-0.188021	-0.000202259	
-0.198056	-0.000213628	
-0.207927	-0.000224997	
-0.217798	-0.000234694	
-0.228327	-0.0002474	
-0.239185	-0.000259104	
-0.250866	-0.000271476	
-0.260737	-0.000281841	
-0.271101	-0.000293545	
-0.280972	-0.000305583	
-0.291008	-0.000315948	
-0.300879	-0.000329324	
-0.309927	-0.000340024	
-0.320127	-0.000349721	
-0.330492	-0.000361759	
-0.341185	-0.000373797	
