Zeit,Kanal A,Kanal B
(us),(V),(V)

0.00000000,0.58781700,0.09979553
0.00555556,0.58717610,0.09887997
0.01111111,0.58635210,0.09787286
0.01666667,0.58540610,0.09680471
0.02222222,0.58439890,0.09573656
0.02777778,0.58339180,0.09460738
0.03333333,0.58244570,0.09347820
0.03888889,0.58165230,0.09234901
0.04444444,0.58101140,0.09121983
0.05000000,0.58058410,0.09015168
0.05555555,0.58034000,0.08911405
0.06111111,0.58030950,0.08816797
0.06666666,0.58040100,0.08722190
0.07222222,0.58061460,0.08636738
0.07777777,0.58085880,0.08554338
0.08333333,0.58107240,0.08474990
0.08888888,0.58119450,0.08398694
0.09444444,0.58113350,0.08322398
0.09999999,0.58079770,0.08243050
0.10555555,0.58012630,0.08157597
0.11111110,0.57927190,0.08069094
0.11666666,0.57829520,0.07971434
0.12222221,0.57722710,0.07870723
0.12777777,0.57618950,0.07763909
0.13333332,0.57518230,0.07657094
0.13888888,0.57432780,0.07547227
0.14444443,0.57362590,0.07434309
0.14999999,0.57310710,0.07327494
0.15555554,0.57280190,0.07217628
0.16111110,0.57267980,0.07113864
0.16666665,0.57271030,0.07013153
0.17222221,0.57283240,0.06918546
0.17777776,0.57298500,0.06823939
0.18333332,0.57310710,0.06735435
0.18888887,0.57310710,0.06646931
0.19444443,0.57298500,0.06558428
0.19999998,0.57255770,0.06466872
0.20555554,0.57179480,0.06372265
0.21111109,0.57087920,0.06274606
0.21666665,0.56981110,0.06170843
0.22222221,0.56868190,0.06064028
0.22777776,0.56758330,0.05951110
0.23333332,0.56651510,0.05841243
0.23888887,0.56559960,0.05728324
0.24444443,0.56483660,0.05615406
0.24999998,0.56428720,0.05505539
0.25555554,0.56395160,0.05401776
0.26111109,0.56379900,0.05301065
0.26666665,0.56376840,0.05203406
0.27222220,0.56386000,0.05111850
0.27777776,0.56401260,0.05026399
0.28333331,0.56410410,0.04943999
0.28888887,0.56413470,0.04864650
0.29444442,0.56398210,0.04788354
0.29999998,0.56355480,0.04709006
0.30555553,0.56282230,0.04626606
0.31111109,0.56190680,0.04538102
0.31666664,0.56086920,0.04446547
0.32222220,0.55977050,0.04348888
0.32777775,0.55867180,0.04248177
0.33333331,0.55766480,0.04144414
0.33888886,0.55674920,0.04037599
0.34444442,0.55604730,0.03927732
0.34999997,0.55552840,0.03817866
0.35555553,0.55519270,0.03711051
0.36111108,0.55507060,0.03604236
0.36666664,0.55510120,0.03500473
0.37222219,0.55522320,0.03402814
0.37777775,0.55540630,0.03305155
0.38333330,0.55555890,0.03213599
0.38888886,0.55562000,0.03122044
0.39444441,0.55552840,0.03033540
0.39999997,0.55516220,0.02945036
0.40555552,0.55449080,0.02853481
0.41111108,0.55363630,0.02758873
0.41666663,0.55265970,0.02658162
0.42222219,0.55159150,0.02554399
0.42777774,0.55055390,0.02444533
0.43333330,0.54954680,0.02334666
0.43888886,0.54866180,0.02221747
0.44444441,0.54792930,0.02108829
0.44999997,0.54738000,0.01992859
0.45555552,0.54704430,0.01882992
0.46111108,0.54686120,0.01773125
0.46666663,0.54680010,0.01666311
0.47222219,0.54686120,0.01562548
0.47777774,0.54695270,0.01464888
0.48333330,0.54704430,0.01370281
0.48888885,0.54701380,0.01278726
0.49444441,0.54683070,0.01193274
0.49999996,0.54637290,0.01104770
0.50555552,0.54560990,0.01016266
0.51111107,0.54466380,0.00921659
0.51666663,0.54359570,0.00827052
0.52222218,0.54246650,0.00723289
0.52777774,0.54133730,0.00619526
0.53333329,0.54026920,0.00512711
0.53888885,0.53929260,0.00399793
0.54444440,0.53849910,0.00286874
0.54999996,0.53788870,0.00173956
0.55555551,0.53746150,0.00061037
0.56111107,0.53721730,-0.00048830
0.56666662,0.53712580,-0.00155644
0.57222218,0.53712580,-0.00262459
0.57777773,0.53715630,-0.00360118
0.58333329,0.53718680,-0.00457778
0.58888884,0.53709520,-0.00549333
0.59444440,0.53688160,-0.00637837
0.59999995,0.53639330,-0.00726341
0.60555551,0.53559980,-0.00814844
0.61111106,0.53465380,-0.00906400
0.61666662,0.53355510,-0.01001007
0.62222217,0.53242590,-0.01098666
0.62777773,0.53126620,-0.01202429
0.63333328,0.53016750,-0.01309244
0.63888884,0.52919100,-0.01419111
0.64444439,0.52836700,-0.01532029
0.64999995,0.52775660,-0.01644948
0.65555550,0.52729880,-0.01757866
0.66111106,0.52705470,-0.01870785
0.66666662,0.52693260,-0.01983703
0.67222217,0.52690210,-0.02090518
0.67777773,0.52693260,-0.02194281
0.68333328,0.52693260,-0.02291940
0.68888884,0.52687160,-0.02389599
0.69444439,0.52662740,-0.02481155
0.69999995,0.52613910,-0.02569658
0.70555550,0.52537610,-0.02658162
0.71111106,0.52443000,-0.02749718
0.71666661,0.52336190,-0.02841273
0.72222217,0.52223270,-0.02938933
0.72777772,0.52110360,-0.03039644
0.73333328,0.52003540,-0.03143407
0.73888883,0.51905880,-0.03247169
0.74444439,0.51823480,-0.03357036
0.74999994,0.51762440,-0.03463851
0.75555550,0.51716670,-0.03573718
0.76111105,0.51689200,-0.03680532
0.76666661,0.51673940,-0.03784295
0.77222216,0.51670890,-0.03885006
0.77777772,0.51670890,-0.03979614
0.78333327,0.51667840,-0.04071169
0.78888883,0.51658680,-0.04156621
0.79444438,0.51634260,-0.04235969
0.79999994,0.51585440,-0.04315317
0.80555549,0.51509140,-0.04391614
0.81111105,0.51414530,-0.04470962
0.81666660,0.51307720,-0.04553362
0.82222216,0.51194800,-0.04641865
0.82777771,0.51081880,-0.04733421
0.83333327,0.50978120,-0.04831080
0.83888882,0.50886570,-0.04931791
0.84444438,0.50810270,-0.05041658
0.84999993,0.50752280,-0.05151524
0.85555549,0.50712610,-0.05264443
0.86111104,0.50694300,-0.05380413
0.86666660,0.50691250,-0.05496383
0.87222215,0.50697350,-0.05609302
0.87777771,0.50712610,-0.05719168
0.88333327,0.50724820,-0.05825983
0.88888882,0.50727870,-0.05929746
0.89444438,0.50718710,-0.06027406
0.89999993,0.50685140,-0.06122013
0.90555549,0.50621050,-0.06213569
0.91111104,0.50538650,-0.06308176
0.91666660,0.50444040,-0.06402783
0.92222215,0.50337230,-0.06500442
0.92777771,0.50230410,-0.06601153
0.93333326,0.50123600,-0.06707969
0.93888882,0.50025940,-0.06814783
0.94444437,0.49937440,-0.06927702
0.94999993,0.49864190,-0.07043672
0.95555548,0.49803160,-0.07156590
0.96111104,0.49757380,-0.07272561
0.96666659,0.49720760,-0.07385479
0.97222215,0.49690240,-0.07495346
0.97777770,0.49659720,-0.07602160
0.98333326,0.49629200,-0.07702872
0.98888881,0.49586470,-0.07797479
0.99444437,0.49531540,-0.07885983
0.99999992,0.49449140,-0.07971434
1.00555548,0.49342330,-0.08050783
1.01111103,0.49217200,-0.08133183
1.01666659,0.49082920,-0.08215582
1.02222214,0.48942530,-0.08301035
1.02777770,0.48805200,-0.08389539
1.03333325,0.48673970,-0.08484146
1.03888881,0.48554950,-0.08584857
1.04444436,0.48454240,-0.08688620
1.04999992,0.48371840,-0.08795434
1.05555547,0.48310800,-0.08902249
1.06111103,0.48268070,-0.09012116
1.06666658,0.48240610,-0.09121983
1.07222214,0.48225350,-0.09228797
1.07777769,0.48219250,-0.09329508
1.08333325,0.48210090,-0.09427167
1.08888880,0.48194830,-0.09518723
1.09444436,0.48170410,-0.09607227
1.09999992,0.48118530,-0.09686575
1.10555547,0.48045290,-0.09762871
1.11111103,0.47953730,-0.09839167
1.11666658,0.47853020,-0.09915464
1.12222214,0.47743160,-0.09997864
1.12777769,0.47636340,-0.10083320
1.13333325,0.47532580,-0.10174870
1.13888880,0.47441020,-0.10269480
1.14444436,0.47361670,-0.10373240
1.14999991,0.47300640,-0.10480060
1.15555547,0.47254860,-0.10589920
1.16111102,0.47227390,-0.10702840
1.16666658,0.47212130,-0.10815760
1.17222213,0.47206030,-0.10928680
1.17777769,0.47206030,-0.11038540
1.18333324,0.47206030,-0.11142310
1.18888880,0.47196870,-0.11239970
1.19444435,0.47178560,-0.11331520
1.19999991,0.47135840,-0.11416970
1.20555546,0.47065650,-0.11499370
1.21111102,0.46980190,-0.11578720
1.21666657,0.46885590,-0.11661120
1.22222213,0.46781820,-0.11743520
1.22777768,0.46678060,-0.11832030
1.23333324,0.46580400,-0.11923580
1.23888879,0.46488850,-0.12021240
1.24444435,0.46412550,-0.12125000
1.24999990,0.46354570,-0.12231820
1.25555546,0.46311840,-0.12344740
1.26111101,0.46281320,-0.12457660
1.26666657,0.46269110,-0.12570570
1.27222212,0.46263010,-0.12680440
1.27777768,0.46259960,-0.12790310
1.28333323,0.46256910,-0.12894070
1.28888879,0.46244700,-0.12991730
1.29444434,0.46223330,-0.13080230
1.29999990,0.46177560,-0.13162630
1.30555545,0.46104310,-0.13238930
1.31111101,0.46015810,-0.13312170
1.31666657,0.45915100,-0.13388470
1.32222212,0.45805230,-0.13464770
1.32777768,0.45698420,-0.13544110
1.33333323,0.45591600,-0.13629570
1.33888879,0.45493940,-0.13721120
1.34444434,0.45405440,-0.13815730
1.34999990,0.45335250,-0.13916440
1.35555545,0.45277260,-0.14023250
1.36111101,0.45234530,-0.14130070
1.36666656,0.45204020,-0.14236890
1.37222212,0.45179600,-0.14343700
1.37777767,0.45158240,-0.14447460
1.38333323,0.45133820,-0.14545120
1.38888878,0.45103310,-0.14636680
1.39444434,0.45060580,-0.14719080
1.39999989,0.44996490,-0.14795370
1.40555545,0.44904940,-0.14862510
1.41111100,0.44801170,-0.14926600
1.41666656,0.44685200,-0.14993740
1.42222211,0.44563130,-0.15060880
1.42777767,0.44441050,-0.15131080
1.43333322,0.44325080,-0.15204320
1.43888878,0.44218270,-0.15286720
1.44444433,0.44126710,-0.15372170
1.44999989,0.44047360,-0.15463730
1.45555544,0.43989380,-0.15561390
1.46111100,0.43946650,-0.15659050
1.46666655,0.43916140,-0.15756710
1.47222211,0.43894770,-0.15857420
1.47777766,0.43879510,-0.15952030
1.48333322,0.43861200,-0.16040530
1.48888877,0.43839840,-0.16122930
1.49444433,0.43806270,-0.16199230
1.49999988,0.43751340,-0.16263310
1.50555544,0.43675040,-0.16321300
1.51111099,0.43580430,-0.16376230
1.51666655,0.43476670,-0.16434220
1.52222210,0.43366800,-0.16492200
1.52777766,0.43256940,-0.16556290
1.53333322,0.43153170,-0.16626480
1.53888877,0.43055510,-0.16702780
1.54444433,0.42970060,-0.16788230
1.54999988,0.42902920,-0.16879790
1.55555544,0.42851040,-0.16977450
1.56111099,0.42811360,-0.17081210
1.56666655,0.42786950,-0.17188020
1.57222210,0.42771690,-0.17297890
1.57777766,0.42759480,-0.17401650
1.58333321,0.42747280,-0.17502360
1.58888877,0.42728970,-0.17600020
1.59444432,0.42701500,-0.17685480
1.59999988,0.42652670,-0.17764820
1.60555543,0.42579420,-0.17831960
1.61111099,0.42490920,-0.17899110
1.61666654,0.42390210,-0.17963190
1.62222210,0.42286450,-0.18030340
1.62777765,0.42179630,-0.18100530
1.63333321,0.42072820,-0.18173770
1.63888876,0.41978210,-0.18256170
1.64444432,0.41892760,-0.18341620
1.64999987,0.41819510,-0.18433180
1.65555543,0.41764580,-0.18533890
1.66111098,0.41718800,-0.18634600
1.66666654,0.41685230,-0.18738370
1.67222209,0.41660820,-0.18839080
1.67777765,0.41639450,-0.18939790
1.68333320,0.41618090,-0.19034390
1.68888876,0.41587570,-0.19122900
1.69444431,0.41547900,-0.19199190
1.69999987,0.41486860,-0.19266340
1.70555542,0.41401410,-0.19324320
1.71111098,0.41303750,-0.19379250
1.71666653,0.41196940,-0.19434190
1.72222209,0.41084020,-0.19486070
1.72777764,0.40971100,-0.19547100
1.73333320,0.40864280,-0.19611190
1.73888875,0.40763570,-0.19681390
1.74444431,0.40675070,-0.19760740
1.74999987,0.40604880,-0.19846190
1.75555542,0.40546890,-0.19937740
1.76111098,0.40504170,-0.20038450
1.76666653,0.40473650,-0.20139160
1.77222209,0.40452280,-0.20239870
1.77777764,0.40433970,-0.20340590
1.78333320,0.40415660,-0.20435190
1.78888875,0.40394300,-0.20523700
1.79444431,0.40360730,-0.20603050
1.79999986,0.40308850,-0.20670190
1.80555542,0.40235600,-0.20725120
1.81111097,0.40147100,-0.20777000
1.81666653,0.40049440,-0.20825830
1.82222208,0.39948730,-0.20874660
1.82777764,0.39848020,-0.20926540
1.83333319,0.39750360,-0.20984530
1.83888875,0.39661850,-0.21045560
1.84444430,0.39588610,-0.21115760
1.84999986,0.39527570,-0.21192050
1.85555541,0.39481790,-0.21271400
1.86111097,0.39451280,-0.21356850
1.86666652,0.39429910,-0.21445360
1.87222208,0.39420760,-0.21530810
1.87777763,0.39414660,-0.21616260
1.88333319,0.39408550,-0.21695610
1.88888874,0.39399390,-0.21765800
1.89444430,0.39378030,-0.21826840
1.89999985,0.39338360,-0.21875670
1.90555541,0.39277320,-0.21915340
1.91111096,0.39204080,-0.21948910
1.91666652,0.39118630,-0.21979430
1.92222207,0.39030120,-0.22013000
1.92777763,0.38938570,-0.22046570
1.93333318,0.38853110,-0.22089300
1.93888874,0.38773770,-0.22138130
1.94444429,0.38706620,-0.22196110
1.94999985,0.38654740,-0.22263250
1.95555540,0.38615070,-0.22339550
1.96111096,0.38587600,-0.22418900
1.96666651,0.38572340,-0.22504350
1.97222207,0.38566240,-0.22592850
1.97777763,0.38563190,-0.22678300
1.98333318,0.38560140,-0.22760700
1.98888874,0.38547930,-0.22833950
1.99444429,0.38529620,-0.22901090
1.99999985,0.38489940,-0.22952970
2.00555540,0.38428910,-0.22995700
2.01111096,0.38352610,-0.23032320
2.01666651,0.38267160,-0.23065890
2.02222207,0.38175600,-0.23099460
2.02777762,0.38084050,-0.23136080
2.03333318,0.37992490,-0.23175760
2.03888873,0.37907040,-0.23224590
2.04444429,0.37833790,-0.23279520
2.04999984,0.37769710,-0.23340560
2.05555540,0.37717830,-0.23413800
2.06111095,0.37678150,-0.23487040
2.06666651,0.37647630,-0.23569450
2.07222206,0.37623220,-0.23648790
2.07777762,0.37604910,-0.23728140
2.08333317,0.37580490,-0.23801380
2.08888873,0.37549970,-0.23868530
2.09444428,0.37510300,-0.23926510
2.09999984,0.37452320,-0.23969240
2.10555539,0.37372970,-0.24002810
2.11111095,0.37281410,-0.24030270
2.11666650,0.37180700,-0.24051640
2.12222206,0.37073890,-0.24076050
2.12777761,0.36967070,-0.24103520
2.13333317,0.36866360,-0.24137090
2.13888872,0.36771750,-0.24176760
2.14444428,0.36686300,-0.24228640
2.14999983,0.36616110,-0.24286630
2.15555539,0.36558120,-0.24353770
2.16111094,0.36515400,-0.24427010
2.16666650,0.36481830,-0.24506360
2.17222205,0.36457410,-0.24585710
2.17777761,0.36436050,-0.24668110
2.18333316,0.36414690,-0.24741360
2.18888872,0.36387220,-0.24811550
2.19444428,0.36353650,-0.24869530
2.19999983,0.36298720,-0.24918360
2.20555539,0.36228520,-0.24948880
2.21111094,0.36143070,-0.24976350
2.21666650,0.36048460,-0.25000760
2.22222205,0.35950800,-0.25025180
2.22777761,0.35853140,-0.25052650
2.23333316,0.35761590,-0.25083160
2.23888872,0.35676140,-0.25122840
2.24444427,0.35602890,-0.25171670
2.24999983,0.35541860,-0.25229650
2.25555538,0.35493030,-0.25293740
2.26111094,0.35462510,-0.25366990
2.26666649,0.35438090,-0.25446330
2.27222205,0.35425890,-0.25525680
2.27777760,0.35416730,-0.25605030
2.28333316,0.35407580,-0.25678270
2.28888871,0.35392310,-0.25748470
2.29444427,0.35370950,-0.25806450
2.29999982,0.35331280,-0.25849180
2.30555538,0.35273290,-0.25879700
2.31111093,0.35200050,-0.25904110
2.31666649,0.35120700,-0.25922420
2.32222204,0.35035250,-0.25940730
2.32777760,0.34949800,-0.25962100
2.33333315,0.34864350,-0.25983460
2.33888871,0.34788050,-0.26013980
2.34444426,0.34720910,-0.26053650
2.34999982,0.34662920,-0.26099430
2.35555537,0.34620200,-0.26151310
2.36111093,0.34586630,-0.26212350
2.36666648,0.34562210,-0.26276440
2.37222204,0.34543900,-0.26340530
2.37777759,0.34528640,-0.26404610
2.38333315,0.34513380,-0.26465650
2.38888870,0.34495070,-0.26514480
2.39444426,0.34464550,-0.26557210
2.39999981,0.34418770,-0.26584670
2.40555537,0.34351630,-0.26596880
2.41111093,0.34275340,-0.26602980
2.41666648,0.34189890,-0.26606040
2.42222204,0.34101380,-0.26606040
2.42777759,0.34009830,-0.26609090
2.43333315,0.33921320,-0.26621300
2.43888870,0.33845030,-0.26636560
2.44444426,0.33774830,-0.26667070
2.44999981,0.33716850,-0.26703690
2.45555537,0.33674120,-0.26752530
2.46111092,0.33640550,-0.26810510
2.46666648,0.33619190,-0.26871550
2.47222203,0.33603930,-0.26938690
2.47777759,0.33591720,-0.27005830
2.48333314,0.33579520,-0.27069920
2.48888870,0.33564260,-0.27127900
2.49444425,0.33539840,-0.27176730
2.49999981,0.33497120,-0.27210300
2.50555536,0.33436080,-0.27228610
2.51111092,0.33365890,-0.27237770
2.51666647,0.33286540,-0.27243870
2.52222203,0.33201090,-0.27243870
2.52777758,0.33118690,-0.27246930
2.53333314,0.33036290,-0.27253030
2.53888869,0.32959990,-0.27262180
2.54444425,0.32892850,-0.27280490
2.54999980,0.32837920,-0.27304910
2.55555536,0.32795190,-0.27335430
2.56111091,0.32764670,-0.27375100
2.56666647,0.32740260,-0.27414780
2.57222202,0.32725000,-0.27457500
2.57777758,0.32709740,-0.27500230
2.58333313,0.32697530,-0.27536850
2.58888869,0.32676170,-0.27564320
2.59444424,0.32648700,-0.27582630
2.59999980,0.32605980,-0.27588730
2.60555535,0.32544940,-0.27576520
2.61111091,0.32474750,-0.27558210
2.61666646,0.32395400,-0.27536850
2.62222202,0.32309950,-0.27515490
2.62777758,0.32227550,-0.27494130
2.63333313,0.32148200,-0.27481920
2.63888869,0.32074950,-0.27478860
2.64444424,0.32013920,-0.27484970
2.64999980,0.31962030,-0.27503280
2.65555535,0.31922360,-0.27533800
2.66111091,0.31897950,-0.27573470
2.66666646,0.31879630,-0.27622300
2.67222202,0.31870480,-0.27677240
2.67777757,0.31861320,-0.27732170
2.68333313,0.31855220,-0.27787100
2.68888868,0.31843010,-0.27832880
2.69444424,0.31824700,-0.27872550
2.69999979,0.31791130,-0.27896970
2.70555535,0.31739250,-0.27909180
2.71111090,0.31675160,-0.27909180
2.71666646,0.31604970,-0.27903070
2.72222201,0.31531720,-0.27896970
2.72777757,0.31458480,-0.27887820
2.73333312,0.31385230,-0.27881710
2.73888868,0.31321150,-0.27884760
2.74444423,0.31266210,-0.27890870
2.74999979,0.31223490,-0.27906130
2.75555534,0.31189920,-0.27930540
2.76111090,0.31168550,-0.27958010
2.76666645,0.31156350,-0.27994630
2.77222201,0.31150240,-0.28031250
2.77777756,0.31147190,-0.28067870
2.78333312,0.31144140,-0.28101440
2.78888867,0.31134980,-0.28125860
2.79444423,0.31116670,-0.28141120
2.79999978,0.31086150,-0.28141120
2.80555534,0.31037320,-0.28128910
2.81111089,0.30979340,-0.28104500
2.81666645,0.30912200,-0.28077030
2.82222200,0.30842010,-0.28046510
2.82777756,0.30768760,-0.28015990
2.83333311,0.30701620,-0.27991580
2.83888867,0.30640580,-0.27973260
2.84444423,0.30588700,-0.27964110
2.84999978,0.30545980,-0.27967160
2.85555534,0.30515460,-0.27979370
2.86111089,0.30494090,-0.27997680
2.86666645,0.30481890,-0.28025150
2.87222200,0.30475780,-0.28058720
2.87777756,0.30472730,-0.28089240
2.88333311,0.30466630,-0.28119750
2.88888867,0.30457470,-0.28144170
2.89444422,0.30442210,-0.28162480
2.89999978,0.30408640,-0.28162480
2.90555533,0.30359810,-0.28147220
2.91111089,0.30301830,-0.28122810
2.91666644,0.30234690,-0.28095340
2.92222200,0.30164500,-0.28061770
2.92777755,0.30094300,-0.28031250
2.93333311,0.30027160,-0.28003790
2.93888866,0.29966120,-0.27979370
2.94444422,0.29911190,-0.27967160
2.94999977,0.29871520,-0.27964110
2.95555533,0.29837950,-0.27970210
2.96111088,0.29816580,-0.27982420
2.96666644,0.29804380,-0.28003790
2.97222199,0.29798270,-0.28028200
2.97777755,0.29795220,-0.28055660
2.98333310,0.29789120,-0.28080080
2.98888866,0.29779960,-0.28098390
2.99444421,0.29761650,-0.28107550
2.99999977,0.29728080,-0.28101440
3.00555532,0.29682300,-0.28080080
3.01111088,0.29621260,-0.28049560
3.01666643,0.29557180,-0.28012940
3.02222199,0.29486980,-0.27973260
3.02777754,0.29416790,-0.27930540
3.03333310,0.29349650,-0.27893920
3.03888865,0.29288610,-0.27863400
3.04444421,0.29236730,-0.27838980
3.04999976,0.29194010,-0.27823730
3.05555532,0.29160440,-0.27817620
3.06111088,0.29139070,-0.27820670
3.06666643,0.29123810,-0.27832880
3.07222199,0.29114660,-0.27845090
3.07777754,0.29105500,-0.27860350
3.08333310,0.29096350,-0.27872550
3.08888865,0.29084140,-0.27881710
3.09444421,0.29062780,-0.27878660
3.09999976,0.29029210,-0.27863400
3.10555532,0.28977330,-0.27832880
3.11111087,0.28919340,-0.27790160
3.11666643,0.28855250,-0.27741320
3.12222198,0.28785060,-0.27689450
3.12777754,0.28717920,-0.27637560
3.13333309,0.28656880,-0.27588730
3.13888865,0.28601950,-0.27542950
3.14444420,0.28556170,-0.27506330
3.14999976,0.28522600,-0.27478860
3.15555531,0.28501240,-0.27460550
3.16111087,0.28492080,-0.27451400
3.16666642,0.28492080,-0.27448350
3.17222198,0.28498180,-0.27448350
3.17777753,0.28507340,-0.27448350
